# Cycle, ((Average density(Ib,Tm), Tm=1,N_MolType), Ib=1,N_Box)
    100100   0.9666407205E+003   0.5315904326E+002   0.6452424025E+002   0.7074445412E+002
    100200   0.9720645871E+003   0.5760552754E+002   0.6468640728E+002   0.7000883786E+002
    100300   0.9697510694E+003   0.5949901549E+002   0.6498345854E+002   0.6972836794E+002
    100400   0.9688543989E+003   0.6004334078E+002   0.6492623185E+002   0.6939688118E+002
    100500   0.9687909101E+003   0.6054473483E+002   0.6539771438E+002   0.6971392915E+002
    100600   0.9674016776E+003   0.6128898509E+002   0.6554298424E+002   0.6965065671E+002
    100700   0.9655536163E+003   0.6285350178E+002   0.6568319745E+002   0.6940866127E+002
    100800   0.9613461479E+003   0.6395136042E+002   0.6580100784E+002   0.6905534771E+002
    100900   0.9574176877E+003   0.6360388451E+002   0.6593231821E+002   0.6888537979E+002
    101000   0.9530807707E+003   0.6417444620E+002   0.6630487110E+002   0.6875081783E+002
    101100   0.9480987332E+003   0.6529229924E+002   0.6688169128E+002   0.6868121470E+002
    101200   0.9438977313E+003   0.6604329194E+002   0.6728355014E+002   0.6862066370E+002
    101300   0.9397978349E+003   0.6639701761E+002   0.6769952818E+002   0.6870677797E+002
    101400   0.9354518007E+003   0.6722907379E+002   0.6810564438E+002   0.6871430255E+002
    101500   0.9325279450E+003   0.6821487396E+002   0.6851290645E+002   0.6876474763E+002
    101600   0.9299351247E+003   0.6956473261E+002   0.6891683377E+002   0.6872565341E+002
    101700   0.9291666997E+003   0.7079277287E+002   0.6941598292E+002   0.6877825270E+002
    101800   0.9281741745E+003   0.7141956176E+002   0.6987762251E+002   0.6887383339E+002
    101900   0.9270335988E+003   0.7153279381E+002   0.7009054213E+002   0.6890056075E+002
    102000   0.9258915320E+003   0.7110577721E+002   0.7002172575E+002   0.6871967044E+002
    102100   0.9257074250E+003   0.7115835223E+002   0.7012027015E+002   0.6865620487E+002
    102200   0.9267000000E+003   0.7074802427E+002   0.7013847854E+002   0.6860474823E+002
    102300   0.9277712612E+003   0.6998271838E+002   0.6996473732E+002   0.6843610430E+002
    102400   0.9289609020E+003   0.6946150796E+002   0.7005014081E+002   0.6852450491E+002
    102500   0.9303861389E+003   0.6892067987E+002   0.6995621414E+002   0.6843371520E+002
    102600   0.9315226018E+003   0.6857385410E+002   0.6996137126E+002   0.6841047295E+002
    102700   0.9320350893E+003   0.6828674717E+002   0.7007487667E+002   0.6845521181E+002
    102800   0.9321334607E+003   0.6774220752E+002   0.7014955979E+002   0.6849497982E+002
    102900   0.9327139153E+003   0.6723368131E+002   0.7016285518E+002   0.6847230210E+002
    103000   0.9335770554E+003   0.6716197920E+002   0.7014003336E+002   0.6839304351E+002
    103100   0.9344783950E+003   0.6707611228E+002   0.7021093134E+002   0.6838115273E+002
    103200   0.9357387585E+003   0.6690036955E+002   0.7024151298E+002   0.6830804196E+002
    103300   0.9368312430E+003   0.6676136238E+002   0.7018069045E+002   0.6816324231E+002
    103400   0.9377037603E+003   0.6656573934E+002   0.7022370188E+002   0.6813690942E+002
    103500   0.9383603397E+003   0.6626142994E+002   0.7022387591E+002   0.6806248609E+002
    103600   0.9377595890E+003   0.6625870259E+002   0.7044100586E+002   0.6814483500E+002
    103700   0.9370943556E+003   0.6633710405E+002   0.7059982623E+002   0.6815436242E+002
    103800   0.9365547646E+003   0.6630524871E+002   0.7078717168E+002   0.6822238924E+002
    103900   0.9363614850E+003   0.6632577317E+002   0.7086327305E+002   0.6819923734E+002
    104000   0.9362701172E+003   0.6621418560E+002   0.7095551145E+002   0.6821606988E+002
    104100   0.9358093008E+003   0.6604486170E+002   0.7101996369E+002   0.6821779366E+002
    104200   0.9351267761E+003   0.6622219066E+002   0.7114505910E+002   0.6819564235E+002
    104300   0.9349382007E+003   0.6631597503E+002   0.7112243774E+002   0.6807909888E+002
    104400   0.9345263770E+003   0.6648402344E+002   0.7123967310E+002   0.6805995712E+002
    104500   0.9339840831E+003   0.6673064018E+002   0.7135976474E+002   0.6802723813E+002
    104600   0.9341065584E+003   0.6670074591E+002   0.7160088809E+002   0.6817374202E+002
    104700   0.9342559502E+003   0.6657218203E+002   0.7166307198E+002   0.6818275956E+002
    104800   0.9344446103E+003   0.6654805110E+002   0.7164413942E+002   0.6811622275E+002
    104900   0.9349340692E+003   0.6666280337E+002   0.7161319673E+002   0.6802206485E+002
    105000   0.9350749015E+003   0.6673928961E+002   0.7165892238E+002   0.6801671479E+002
    105100   0.9351302149E+003   0.6689054119E+002   0.7171975505E+002   0.6802722282E+002
    105200   0.9352650390E+003   0.6706196505E+002   0.7175285425E+002   0.6801919339E+002
    105300   0.9353600573E+003   0.6710175410E+002   0.7175391606E+002   0.6799500370E+002
    105400   0.9358452406E+003   0.6714144888E+002   0.7169779681E+002   0.6793061041E+002
    105500   0.9362113266E+003   0.6724296964E+002   0.7164795853E+002   0.6785984984E+002
    105600   0.9365215361E+003   0.6721268887E+002   0.7165744497E+002   0.6785218778E+002
    105700   0.9367866023E+003   0.6712218187E+002   0.7169955983E+002   0.6787331240E+002
    105800   0.9371715852E+003   0.6677907278E+002   0.7179943649E+002   0.6798468636E+002
    105900   0.9377523887E+003   0.6647677729E+002   0.7176088077E+002   0.6796237955E+002
    106000   0.9379154589E+003   0.6629123149E+002   0.7177858820E+002   0.6797358787E+002
    106100   0.9383532990E+003   0.6618280511E+002   0.7183920158E+002   0.6802655375E+002
    106200   0.9385401783E+003   0.6614365694E+002   0.7192281273E+002   0.6808694903E+002
    106300   0.9389418961E+003   0.6609176118E+002   0.7197121599E+002   0.6811985513E+002
    106400   0.9394268546E+003   0.6603128846E+002   0.7202444097E+002   0.6816354077E+002
    106500   0.9400637441E+003   0.6595965035E+002   0.7209057588E+002   0.6824581646E+002
    106600   0.9404644821E+003   0.6582608328E+002   0.7207635023E+002   0.6825332135E+002
    106700   0.9408688732E+003   0.6570793936E+002   0.7209472669E+002   0.6829357016E+002
    106800   0.9412807536E+003   0.6569426584E+002   0.7206471992E+002   0.6827259454E+002
    106900   0.9416546654E+003   0.6566323393E+002   0.7204605360E+002   0.6825727494E+002
    107000   0.9419854666E+003   0.6556298002E+002   0.7202069873E+002   0.6823873273E+002
    107100   0.9422065703E+003   0.6533938651E+002   0.7199947282E+002   0.6824011907E+002
    107200   0.9424255621E+003   0.6509560487E+002   0.7196642394E+002   0.6823752477E+002
    107300   0.9427846478E+003   0.6496842334E+002   0.7193338824E+002   0.6822156263E+002
    107400   0.9429065643E+003   0.6491717945E+002   0.7194420419E+002   0.6823033088E+002
    107500   0.9430627885E+003   0.6496202410E+002   0.7193829753E+002   0.6821157180E+002
    107600   0.9432253049E+003   0.6502864764E+002   0.7192872532E+002   0.6818920328E+002
    107700   0.9433531122E+003   0.6516249283E+002   0.7190349320E+002   0.6814018476E+002
    107800   0.9433358404E+003   0.6529058244E+002   0.7188236617E+002   0.6809982161E+002
    107900   0.9431042636E+003   0.6546082675E+002   0.7198073066E+002   0.6815359399E+002
    108000   0.9426824648E+003   0.6554973068E+002   0.7196747241E+002   0.6810375414E+002
    108100   0.9421844591E+003   0.6568982961E+002   0.7196420244E+002   0.6805174754E+002
    108200   0.9418442525E+003   0.6573360885E+002   0.7199651033E+002   0.6804516709E+002
    108300   0.9417639342E+003   0.6584592897E+002   0.7202523131E+002   0.6803145798E+002
    108400   0.9414221195E+003   0.6600955576E+002   0.7206766851E+002   0.6801104564E+002
    108500   0.9413737493E+003   0.6611046496E+002   0.7211206999E+002   0.6800866815E+002
    108600   0.9410688277E+003   0.6608777762E+002   0.7208112324E+002   0.6794189958E+002
    108700   0.9406839997E+003   0.6604370316E+002   0.7208791483E+002   0.6790745380E+002
    108800   0.9403233423E+003   0.6607436808E+002   0.7213940146E+002   0.6790576647E+002
    108900   0.9397488977E+003   0.6621355577E+002   0.7223044029E+002   0.6791178058E+002
    109000   0.9393355600E+003   0.6634814466E+002   0.7235221754E+002   0.6794529702E+002
    109100   0.9390231853E+003   0.6636346094E+002   0.7236098828E+002   0.6791580566E+002
    109200   0.9386904928E+003   0.6647054673E+002   0.7238725670E+002   0.6789299537E+002
    109300   0.9383687383E+003   0.6663011649E+002   0.7247610573E+002   0.6790974396E+002
    109400   0.9380837593E+003   0.6676809957E+002   0.7251504403E+002   0.6789409355E+002
    109500   0.9378583729E+003   0.6702843667E+002   0.7252863614E+002   0.6783975062E+002
    109600   0.9378080557E+003   0.6716808038E+002   0.7258447060E+002   0.6785333149E+002
    109700   0.9378591468E+003   0.6731410027E+002   0.7262110934E+002   0.6785041067E+002
    109800   0.9378191360E+003   0.6751376543E+002   0.7263502136E+002   0.6781448590E+002
    109900   0.9377420589E+003   0.6768526984E+002   0.7264844919E+002   0.6777392763E+002
    110000   0.9376502471E+003   0.6782002012E+002   0.7265501238E+002   0.6772931303E+002
    110100   0.9376995857E+003   0.6792898900E+002   0.7269673392E+002   0.6772475706E+002
    110200   0.9378789409E+003   0.6804261385E+002   0.7273994614E+002   0.6771922822E+002
    110300   0.9380421145E+003   0.6813959349E+002   0.7279831323E+002   0.6773057732E+002
    110400   0.9382458686E+003   0.6822758113E+002   0.7283044655E+002   0.6772245869E+002
    110500   0.9384048834E+003   0.6816891374E+002   0.7279101491E+002   0.6767106629E+002
    110600   0.9384894365E+003   0.6806195727E+002   0.7271856313E+002   0.6759501630E+002
    110700   0.9386281527E+003   0.6786017092E+002   0.7266998995E+002   0.6755355312E+002
    110800   0.9388675359E+003   0.6761218688E+002   0.7261547304E+002   0.6751106304E+002
    110900   0.9393343119E+003   0.6735870688E+002   0.7259727869E+002   0.6750846106E+002
    111000   0.9399408015E+003   0.6716538440E+002   0.7258944063E+002   0.6751981887E+002
    111100   0.9404287226E+003   0.6701088657E+002   0.7258775480E+002   0.6752548345E+002
    111200   0.9408666997E+003   0.6683100449E+002   0.7265354834E+002   0.6759614693E+002
    111300   0.9412206407E+003   0.6669456820E+002   0.7270956323E+002   0.6764626637E+002
    111400   0.9413194876E+003   0.6657852304E+002   0.7273869127E+002   0.6766769352E+002
    111500   0.9413975916E+003   0.6642563529E+002   0.7273548633E+002   0.6765900993E+002
    111600   0.9415565081E+003   0.6620216121E+002   0.7271706019E+002   0.6764984134E+002
    111700   0.9417455775E+003   0.6606202954E+002   0.7268355375E+002   0.6761711730E+002
    111800   0.9420704900E+003   0.6591550078E+002   0.7273010392E+002   0.6766325924E+002
    111900   0.9423228970E+003   0.6581685876E+002   0.7276850408E+002   0.6770211031E+002
    112000   0.9425693088E+003   0.6571103714E+002   0.7275410809E+002   0.6769729043E+002
    112100   0.9427880690E+003   0.6562976098E+002   0.7274353301E+002   0.6769224529E+002
    112200   0.9430672398E+003   0.6556334996E+002   0.7272967713E+002   0.6769428857E+002
    112300   0.9434808191E+003   0.6553282033E+002   0.7272236911E+002   0.6769965346E+002
    112400   0.9437423939E+003   0.6548675186E+002   0.7274286953E+002   0.6773873433E+002
    112500   0.9439236012E+003   0.6548802321E+002   0.7273337812E+002   0.6774228589E+002
    112600   0.9440161655E+003   0.6546883287E+002   0.7272140871E+002   0.6774412428E+002
    112700   0.9440880642E+003   0.6547710322E+002   0.7272754919E+002   0.6775692002E+002
    112800   0.9442142113E+003   0.6550845427E+002   0.7271057538E+002   0.6774427327E+002
    112900   0.9443626080E+003   0.6550207409E+002   0.7268592688E+002   0.6772948664E+002
    113000   0.9445163326E+003   0.6548463999E+002   0.7267344596E+002   0.6773093234E+002
    113100   0.9446396494E+003   0.6547849977E+002   0.7268353467E+002   0.6775089532E+002
    113200   0.9447131068E+003   0.6544769450E+002   0.7265183367E+002   0.6773519550E+002
    113300   0.9448625754E+003   0.6549242467E+002   0.7264281676E+002   0.6773265496E+002
    113400   0.9450994768E+003   0.6550437789E+002   0.7260615156E+002   0.6771420779E+002
    113500   0.9454169664E+003   0.6548704800E+002   0.7260976827E+002   0.6773620129E+002
    113600   0.9456558598E+003   0.6541715650E+002   0.7260575580E+002   0.6774968507E+002
    113700   0.9459569884E+003   0.6529803091E+002   0.7257637722E+002   0.6774470748E+002
    113800   0.9462896859E+003   0.6511348794E+002   0.7257448344E+002   0.6777547272E+002
    113900   0.9465806226E+003   0.6495284062E+002   0.7250932064E+002   0.6774305073E+002
    114000   0.9469065072E+003   0.6481986901E+002   0.7249164552E+002   0.6775527112E+002
    114100   0.9471926110E+003   0.6470862308E+002   0.7247716692E+002   0.6775928293E+002
    114200   0.9473898246E+003   0.6466123711E+002   0.7249328103E+002   0.6778323867E+002
    114300   0.9475447390E+003   0.6462368069E+002   0.7251103816E+002   0.6780620890E+002
    114400   0.9477341365E+003   0.6454623420E+002   0.7249581918E+002   0.6780265935E+002
    114500   0.9478154191E+003   0.6449458406E+002   0.7247407737E+002   0.6777997387E+002
    114600   0.9478851835E+003   0.6447370949E+002   0.7248047826E+002   0.6778050330E+002
    114700   0.9480039087E+003   0.6444671464E+002   0.7249047194E+002   0.6778452360E+002
    114800   0.9479938394E+003   0.6444971928E+002   0.7253653527E+002   0.6781397529E+002
    114900   0.9480076854E+003   0.6448013342E+002   0.7258599121E+002   0.6784440199E+002
    115000   0.9480425026E+003   0.6452493907E+002   0.7261254757E+002   0.6785074117E+002
    115100   0.9481436066E+003   0.6450663982E+002   0.7265131790E+002   0.6787451804E+002
    115200   0.9481768728E+003   0.6445950628E+002   0.7267739839E+002   0.6789141340E+002
    115300   0.9482695189E+003   0.6441217974E+002   0.7269059542E+002   0.6790053676E+002
    115400   0.9484669354E+003   0.6433223757E+002   0.7272162599E+002   0.6793802357E+002
    115500   0.9486397344E+003   0.6427342327E+002   0.7271945801E+002   0.6794323630E+002
    115600   0.9487437761E+003   0.6419423172E+002   0.7276549464E+002   0.6799748444E+002
    115700   0.9487402170E+003   0.6408295596E+002   0.7276916597E+002   0.6800985873E+002
    115800   0.9487859449E+003   0.6401211352E+002   0.7278917002E+002   0.6803049070E+002
    115900   0.9488247399E+003   0.6396447288E+002   0.7280742739E+002   0.6804653203E+002
    116000   0.9488230843E+003   0.6388224528E+002   0.7281976328E+002   0.6806280714E+002
    116100   0.9486961380E+003   0.6387826183E+002   0.7284136170E+002   0.6807340327E+002
    116200   0.9486222295E+003   0.6390476229E+002   0.7286472269E+002   0.6807999952E+002
    116300   0.9486462029E+003   0.6390332294E+002   0.7289021000E+002   0.6809588208E+002
    116400   0.9487560826E+003   0.6387029587E+002   0.7288578840E+002   0.6809383996E+002
    116500   0.9488071505E+003   0.6381412031E+002   0.7285691364E+002   0.6806738341E+002
    116600   0.9489501779E+003   0.6377428607E+002   0.7283583530E+002   0.6804746949E+002
    116700   0.9490585405E+003   0.6377803447E+002   0.7285017518E+002   0.6805384701E+002
    116800   0.9491808548E+003   0.6374953985E+002   0.7282815155E+002   0.6803225245E+002
    116900   0.9492971832E+003   0.6372797400E+002   0.7283731870E+002   0.6803665693E+002
    117000   0.9494300323E+003   0.6368129389E+002   0.7286181868E+002   0.6806104644E+002
    117100   0.9495359569E+003   0.6360406872E+002   0.7287018169E+002   0.6807149569E+002
    117200   0.9496157907E+003   0.6352941403E+002   0.7287884295E+002   0.6808153996E+002
    117300   0.9496514634E+003   0.6342347689E+002   0.7286167271E+002   0.6807184386E+002
    117400   0.9498011308E+003   0.6332950825E+002   0.7284052270E+002   0.6806001495E+002
    117500   0.9498769140E+003   0.6329101518E+002   0.7282066600E+002   0.6804493653E+002
    117600   0.9499589715E+003   0.6323120762E+002   0.7280818673E+002   0.6804127601E+002
    117700   0.9499830808E+003   0.6318414288E+002   0.7281092353E+002   0.6804662671E+002
    117800   0.9500047877E+003   0.6313458716E+002   0.7280561376E+002   0.6804209322E+002
    117900   0.9499755479E+003   0.6311469077E+002   0.7279740684E+002   0.6802884430E+002
    118000   0.9500725589E+003   0.6314403326E+002   0.7281823028E+002   0.6803794700E+002
    118100   0.9501944995E+003   0.6316156396E+002   0.7284427724E+002   0.6805828194E+002
    118200   0.9504315362E+003   0.6318882149E+002   0.7292344761E+002   0.6813148966E+002
    118300   0.9506277944E+003   0.6319951265E+002   0.7296511453E+002   0.6816800588E+002
    118400   0.9510054124E+003   0.6317246309E+002   0.7294970101E+002   0.6815886351E+002
    118500   0.9513045021E+003   0.6309017249E+002   0.7294671203E+002   0.6817178607E+002
    118600   0.9516072344E+003   0.6300672619E+002   0.7292295846E+002   0.6816778910E+002
    118700   0.9518217964E+003   0.6294516209E+002   0.7290910221E+002   0.6817206868E+002
    118800   0.9521541074E+003   0.6291313680E+002   0.7286769987E+002   0.6815024253E+002
    118900   0.9524876575E+003   0.6287493067E+002   0.7285866134E+002   0.6815951376E+002
    119000   0.9526684364E+003   0.6283297198E+002   0.7285259758E+002   0.6816638965E+002
    119100   0.9528145903E+003   0.6278493220E+002   0.7284846654E+002   0.6817187064E+002
    119200   0.9529651846E+003   0.6275954236E+002   0.7282051706E+002   0.6814987345E+002
    119300   0.9530839633E+003   0.6274449600E+002   0.7280274021E+002   0.6813424704E+002
    119400   0.9531687650E+003   0.6273566332E+002   0.7278764423E+002   0.6812187929E+002
    119500   0.9532384495E+003   0.6273220832E+002   0.7281153963E+002   0.6814346833E+002
    119600   0.9534051355E+003   0.6273800829E+002   0.7282973761E+002   0.6816019013E+002
    119700   0.9534141527E+003   0.6273987548E+002   0.7282039151E+002   0.6814926186E+002
    119800   0.9534261306E+003   0.6271812733E+002   0.7280532177E+002   0.6813269841E+002
    119900   0.9534758338E+003   0.6271386417E+002   0.7279586428E+002   0.6811829515E+002
    120000   0.9534953515E+003   0.6270523602E+002   0.7278244971E+002   0.6810191560E+002
    120100   0.9535115127E+003   0.6269431604E+002   0.7278605019E+002   0.6810062662E+002
    120200   0.9534682256E+003   0.6266946438E+002   0.7280628306E+002   0.6810944768E+002
    120300   0.9533892869E+003   0.6266385123E+002   0.7280729973E+002   0.6809971324E+002
    120400   0.9534923995E+003   0.6266716978E+002   0.7282145666E+002   0.6810132460E+002
    120500   0.9535568520E+003   0.6264483008E+002   0.7281660353E+002   0.6808647819E+002
    120600   0.9535737848E+003   0.6259527883E+002   0.7281452455E+002   0.6807373134E+002
    120700   0.9535648383E+003   0.6252909798E+002   0.7280832354E+002   0.6806176020E+002
    120800   0.9536190656E+003   0.6246004314E+002   0.7280693984E+002   0.6805068915E+002
    120900   0.9536341176E+003   0.6241418688E+002   0.7281426024E+002   0.6804759260E+002
    121000   0.9536164303E+003   0.6244388479E+002   0.7281206307E+002   0.6803028542E+002
    121100   0.9535765108E+003   0.6251963116E+002   0.7282720473E+002   0.6802354083E+002
    121200   0.9535774343E+003   0.6257528147E+002   0.7285938217E+002   0.6803623417E+002
    121300   0.9534483934E+003   0.6266824708E+002   0.7285412872E+002   0.6800877189E+002
    121400   0.9533126012E+003   0.6272483865E+002   0.7284748638E+002   0.6798515008E+002
    121500   0.9532323444E+003   0.6277706357E+002   0.7286506862E+002   0.6798703905E+002
    121600   0.9531197524E+003   0.6279625466E+002   0.7284775206E+002   0.6795956368E+002
    121700   0.9529983699E+003   0.6283073633E+002   0.7286928966E+002   0.6796331133E+002
    121800   0.9528288501E+003   0.6291104773E+002   0.7289431695E+002   0.6796276350E+002
    121900   0.9525691082E+003   0.6307522669E+002   0.7290957308E+002   0.6794028923E+002
