# Cycle, ((Average density(Ib,Tm), Tm=1,N_MolType), Ib=1,N_Box)
    100100   0.6919965479E+003   0.1927132865E+003   0.9959521935E+002   0.1816903897E+003
    100200   0.6870970155E+003   0.1942202615E+003   0.1003087949E+003   0.1827039283E+003
    100300   0.6904162916E+003   0.1979909447E+003   0.1006334379E+003   0.1829651967E+003
    100400   0.6964463998E+003   0.1985404203E+003   0.1014382853E+003   0.1854468713E+003
    100500   0.6985243165E+003   0.1976485984E+003   0.9973951772E+002   0.1829741471E+003
    100600   0.7035051844E+003   0.1958333139E+003   0.9969650818E+002   0.1839681484E+003
    100700   0.7081840117E+003   0.1939696619E+003   0.9966281295E+002   0.1854772260E+003
    100800   0.7127966719E+003   0.1923461864E+003   0.9856295796E+002   0.1850905606E+003
    100900   0.7174988419E+003   0.1912778865E+003   0.9769281901E+002   0.1853274605E+003
    101000   0.7200923000E+003   0.1902687849E+003   0.9666879292E+002   0.1853874363E+003
    101100   0.7242736127E+003   0.1896860450E+003   0.9596728314E+002   0.1864069435E+003
    101200   0.7291483784E+003   0.1896218813E+003   0.9536009400E+002   0.1871402469E+003
    101300   0.7320952540E+003   0.1898414839E+003   0.9477785925E+002   0.1875398801E+003
    101400   0.7334454960E+003   0.1900559802E+003   0.9443077452E+002   0.1880838536E+003
    101500   0.7357264393E+003   0.1899430928E+003   0.9368942459E+002   0.1883272468E+003
    101600   0.7379478393E+003   0.1892464447E+003   0.9273601874E+002   0.1880766855E+003
    101700   0.7401376782E+003   0.1887943497E+003   0.9199235331E+002   0.1882647822E+003
    101800   0.7417334226E+003   0.1885043969E+003   0.9139679594E+002   0.1882129732E+003
    101900   0.7428553739E+003   0.1878333792E+003   0.9097948405E+002   0.1884154414E+003
    102000   0.7434500964E+003   0.1876836154E+003   0.9049618779E+002   0.1880607142E+003
    102100   0.7451083942E+003   0.1875163747E+003   0.9019950217E+002   0.1882655593E+003
    102200   0.7469933390E+003   0.1874018762E+003   0.8980298905E+002   0.1879134540E+003
    102300   0.7478540108E+003   0.1878115479E+003   0.8965575027E+002   0.1875685542E+003
    102400   0.7490658348E+003   0.1879565418E+003   0.8952181445E+002   0.1872902555E+003
    102500   0.7493942952E+003   0.1880078214E+003   0.8930515867E+002   0.1868228361E+003
    102600   0.7495496743E+003   0.1882152927E+003   0.8937595129E+002   0.1868338731E+003
    102700   0.7504617192E+003   0.1884496356E+003   0.8946779574E+002   0.1872139208E+003
    102800   0.7513198126E+003   0.1884876309E+003   0.8937205213E+002   0.1873254458E+003
    102900   0.7525102989E+003   0.1885083923E+003   0.8928132011E+002   0.1875881607E+003
    103000   0.7532606963E+003   0.1888289721E+003   0.8904575851E+002   0.1872476573E+003
    103100   0.7537466919E+003   0.1890450863E+003   0.8899183567E+002   0.1872568281E+003
    103200   0.7547208922E+003   0.1892061326E+003   0.8893690291E+002   0.1873876348E+003
    103300   0.7550378856E+003   0.1889820892E+003   0.8880862969E+002   0.1873727920E+003
    103400   0.7549989166E+003   0.1887789080E+003   0.8864729681E+002   0.1872612553E+003
    103500   0.7546910240E+003   0.1887771205E+003   0.8869275133E+002   0.1873874255E+003
    103600   0.7540360322E+003   0.1888695882E+003   0.8867689831E+002   0.1872116628E+003
    103700   0.7534354493E+003   0.1888194131E+003   0.8870538445E+002   0.1871574274E+003
    103800   0.7531202310E+003   0.1888639380E+003   0.8889186558E+002   0.1872943261E+003
    103900   0.7522891516E+003   0.1889499792E+003   0.8905180781E+002   0.1872568805E+003
    104000   0.7508262791E+003   0.1893135981E+003   0.8928500318E+002   0.1872574329E+003
    104100   0.7497372127E+003   0.1898577724E+003   0.8936734562E+002   0.1870024233E+003
    104200   0.7482182547E+003   0.1904475164E+003   0.8953110067E+002   0.1867874170E+003
    104300   0.7466887547E+003   0.1908994834E+003   0.8960449847E+002   0.1865616639E+003
    104400   0.7454045955E+003   0.1914041513E+003   0.8969745517E+002   0.1864196080E+003
    104500   0.7444124440E+003   0.1918782487E+003   0.8984710243E+002   0.1864122140E+003
    104600   0.7431095060E+003   0.1922199218E+003   0.9002727920E+002   0.1864822495E+003
    104700   0.7420003456E+003   0.1924455200E+003   0.9020175043E+002   0.1866287352E+003
    104800   0.7411097947E+003   0.1928574460E+003   0.9047166234E+002   0.1868329204E+003
    104900   0.7401224794E+003   0.1931913634E+003   0.9056184243E+002   0.1866857941E+003
    105000   0.7390347306E+003   0.1933051487E+003   0.9068893290E+002   0.1866982351E+003
    105100   0.7380908900E+003   0.1933161060E+003   0.9065770420E+002   0.1865432102E+003
    105200   0.7370255116E+003   0.1933647357E+003   0.9078523463E+002   0.1865447463E+003
    105300   0.7363760569E+003   0.1933512853E+003   0.9102827019E+002   0.1868627638E+003
    105400   0.7360033966E+003   0.1934088325E+003   0.9116442564E+002   0.1869525468E+003
    105500   0.7353091376E+003   0.1934988972E+003   0.9135199681E+002   0.1870682992E+003
    105600   0.7347562944E+003   0.1937046698E+003   0.9155585685E+002   0.1871675347E+003
    105700   0.7345668489E+003   0.1938831452E+003   0.9158459028E+002   0.1869725779E+003
    105800   0.7345117839E+003   0.1938682847E+003   0.9152345026E+002   0.1867371584E+003
    105900   0.7345594472E+003   0.1939368922E+003   0.9162598131E+002   0.1868231880E+003
    106000   0.7341708964E+003   0.1937652669E+003   0.9172779418E+002   0.1869209783E+003
    106100   0.7335954593E+003   0.1935541555E+003   0.9183722699E+002   0.1868758478E+003
    106200   0.7328743880E+003   0.1933621002E+003   0.9202162197E+002   0.1869287910E+003
    106300   0.7322564567E+003   0.1933193564E+003   0.9209166641E+002   0.1868058357E+003
    106400   0.7315876853E+003   0.1933301292E+003   0.9213350677E+002   0.1865843040E+003
    106500   0.7308711287E+003   0.1933339875E+003   0.9219749325E+002   0.1864339182E+003
    106600   0.7301308866E+003   0.1933984753E+003   0.9238299279E+002   0.1864267359E+003
    106700   0.7297179459E+003   0.1935862812E+003   0.9259887959E+002   0.1864106212E+003
    106800   0.7287800826E+003   0.1936710817E+003   0.9280833769E+002   0.1862666923E+003
    106900   0.7280781751E+003   0.1937243005E+003   0.9300645054E+002   0.1862411419E+003
    107000   0.7276156369E+003   0.1938329751E+003   0.9313818265E+002   0.1860997076E+003
    107100   0.7271979348E+003   0.1937281743E+003   0.9328372344E+002   0.1860127833E+003
    107200   0.7266977721E+003   0.1936881309E+003   0.9346943767E+002   0.1859604579E+003
    107300   0.7262037995E+003   0.1936660253E+003   0.9369641181E+002   0.1860197165E+003
    107400   0.7255697126E+003   0.1937304553E+003   0.9392087238E+002   0.1859817265E+003
    107500   0.7249480502E+003   0.1939239193E+003   0.9412480082E+002   0.1859334354E+003
    107600   0.7241346630E+003   0.1942450392E+003   0.9446443465E+002   0.1860278250E+003
    107700   0.7232850869E+003   0.1945257074E+003   0.9471266138E+002   0.1859756030E+003
    107800   0.7226436019E+003   0.1947761175E+003   0.9489476262E+002   0.1858779214E+003
    107900   0.7221680405E+003   0.1949877557E+003   0.9504260286E+002   0.1858017411E+003
    108000   0.7213832698E+003   0.1951258806E+003   0.9526436925E+002   0.1857640458E+003
    108100   0.7206765525E+003   0.1951951255E+003   0.9553368780E+002   0.1857589923E+003
    108200   0.7200893406E+003   0.1953119038E+003   0.9580562797E+002   0.1857411966E+003
    108300   0.7197252504E+003   0.1953660645E+003   0.9597651921E+002   0.1856054658E+003
    108400   0.7193409709E+003   0.1954507042E+003   0.9614001495E+002   0.1854722880E+003
    108500   0.7191540539E+003   0.1956162110E+003   0.9625288442E+002   0.1853366674E+003
    108600   0.7191341987E+003   0.1957714501E+003   0.9635937623E+002   0.1852854917E+003
    108700   0.7190483950E+003   0.1959003933E+003   0.9652844309E+002   0.1852877189E+003
    108800   0.7190517140E+003   0.1959635007E+003   0.9669268639E+002   0.1853219518E+003
    108900   0.7189762201E+003   0.1960840279E+003   0.9688343932E+002   0.1853446757E+003
    109000   0.7190513945E+003   0.1961315308E+003   0.9696270171E+002   0.1852164955E+003
    109100   0.7190170972E+003   0.1961828379E+003   0.9711646511E+002   0.1851840687E+003
    109200   0.7187303597E+003   0.1962834629E+003   0.9731665809E+002   0.1851574925E+003
    109300   0.7189379507E+003   0.1962822078E+003   0.9738939904E+002   0.1851045570E+003
    109400   0.7191523010E+003   0.1962169007E+003   0.9751064351E+002   0.1851931354E+003
    109500   0.7192701011E+003   0.1961284629E+003   0.9763431822E+002   0.1852672268E+003
    109600   0.7195883856E+003   0.1960072229E+003   0.9776974131E+002   0.1854139735E+003
    109700   0.7196781762E+003   0.1958532977E+003   0.9785527723E+002   0.1854928092E+003
    109800   0.7198747477E+003   0.1955994128E+003   0.9782733075E+002   0.1853548456E+003
    109900   0.7200257400E+003   0.1953906339E+003   0.9783944771E+002   0.1852635029E+003
    110000   0.7202486747E+003   0.1952100672E+003   0.9786648184E+002   0.1852092583E+003
    110100   0.7203651522E+003   0.1949974890E+003   0.9791973871E+002   0.1852341369E+003
    110200   0.7204860117E+003   0.1947894070E+003   0.9791684133E+002   0.1852077835E+003
    110300   0.7207981766E+003   0.1945789088E+003   0.9796895561E+002   0.1853495544E+003
    110400   0.7210185302E+003   0.1944688741E+003   0.9799824448E+002   0.1853943672E+003
    110500   0.7212771321E+003   0.1943505528E+003   0.9799064754E+002   0.1853788438E+003
    110600   0.7214406356E+003   0.1942527985E+003   0.9795584527E+002   0.1852874301E+003
    110700   0.7213974115E+003   0.1942417435E+003   0.9795206408E+002   0.1852105057E+003
    110800   0.7211097441E+003   0.1942021029E+003   0.9804624738E+002   0.1852629282E+003
    110900   0.7208779060E+003   0.1942844185E+003   0.9807643206E+002   0.1851998260E+003
    111000   0.7206667726E+003   0.1944006365E+003   0.9809123617E+002   0.1851077896E+003
    111100   0.7205103503E+003   0.1945101288E+003   0.9810743567E+002   0.1850266329E+003
    111200   0.7205066803E+003   0.1946394033E+003   0.9817216343E+002   0.1850731406E+003
    111300   0.7204053181E+003   0.1948205433E+003   0.9827142450E+002   0.1851028570E+003
    111400   0.7201756856E+003   0.1950732127E+003   0.9846390769E+002   0.1852402249E+003
    111500   0.7198163569E+003   0.1953083358E+003   0.9861236407E+002   0.1852536033E+003
    111600   0.7194126433E+003   0.1955616066E+003   0.9881223948E+002   0.1853374430E+003
    111700   0.7191276289E+003   0.1958025353E+003   0.9895304477E+002   0.1853405765E+003
    111800   0.7190970627E+003   0.1959682329E+003   0.9902115189E+002   0.1852982537E+003
    111900   0.7192936114E+003   0.1961820599E+003   0.9917714734E+002   0.1853976333E+003
    112000   0.7193325597E+003   0.1964283443E+003   0.9946207149E+002   0.1856243402E+003
    112100   0.7193735519E+003   0.1966445441E+003   0.9964986202E+002   0.1857452181E+003
    112200   0.7191506485E+003   0.1969075396E+003   0.9979003882E+002   0.1857212563E+003
    112300   0.7190669425E+003   0.1971366419E+003   0.9984175884E+002   0.1856320596E+003
    112400   0.7189781461E+003   0.1974000865E+003   0.9988429156E+002   0.1854887988E+003
    112500   0.7188950699E+003   0.1975601834E+003   0.9990787716E+002   0.1853953435E+003
    112600   0.7187479942E+003   0.1977129237E+003   0.9994044895E+002   0.1852789671E+003
    112700   0.7184246216E+003   0.1978363839E+003   0.1000472817E+003   0.1852311655E+003
    112800   0.7182022394E+003   0.1979609602E+003   0.1001575595E+003   0.1852110720E+003
    112900   0.7179807080E+003   0.1979472234E+003   0.1002237456E+003   0.1851903563E+003
    113000   0.7178739476E+003   0.1979422589E+003   0.1002528414E+003   0.1851107203E+003
    113100   0.7178234470E+003   0.1980079151E+003   0.1002815009E+003   0.1850244237E+003
    113200   0.7177471375E+003   0.1980709153E+003   0.1003769748E+003   0.1850377301E+003
    113300   0.7175046093E+003   0.1981444207E+003   0.1005050762E+003   0.1850467951E+003
    113400   0.7174153770E+003   0.1981898422E+003   0.1006002954E+003   0.1850561350E+003
    113500   0.7174375446E+003   0.1982188140E+003   0.1006346531E+003   0.1850082963E+003
    113600   0.7176230115E+003   0.1981929394E+003   0.1006515819E+003   0.1849449275E+003
    113700   0.7180265914E+003   0.1980969727E+003   0.1006237098E+003   0.1848142809E+003
    113800   0.7184453731E+003   0.1979470981E+003   0.1006944045E+003   0.1848787979E+003
    113900   0.7190727740E+003   0.1977247214E+003   0.1007434997E+003   0.1848825913E+003
    114000   0.7196057291E+003   0.1974919865E+003   0.1008251640E+003   0.1849776605E+003
    114100   0.7199454313E+003   0.1972958712E+003   0.1009445111E+003   0.1851022535E+003
    114200   0.7205518198E+003   0.1971327266E+003   0.1010809881E+003   0.1852303151E+003
    114300   0.7212044460E+003   0.1969801021E+003   0.1012121662E+003   0.1853587286E+003
    114400   0.7220754572E+003   0.1967865098E+003   0.1013003122E+003   0.1854105855E+003
    114500   0.7228602494E+003   0.1966092769E+003   0.1013078320E+003   0.1853572268E+003
    114600   0.7236794112E+003   0.1962734082E+003   0.1013619308E+003   0.1853662232E+003
    114700   0.7240963759E+003   0.1960305365E+003   0.1013783721E+003   0.1853157529E+003
    114800   0.7244183451E+003   0.1957920448E+003   0.1014557662E+003   0.1853336196E+003
    114900   0.7248464682E+003   0.1955382489E+003   0.1014924288E+003   0.1853260580E+003
    115000   0.7253717585E+003   0.1952612700E+003   0.1015634379E+003   0.1853720194E+003
    115100   0.7257529083E+003   0.1949281703E+003   0.1016449616E+003   0.1853542031E+003
    115200   0.7261576791E+003   0.1946503349E+003   0.1017594839E+003   0.1854151166E+003
    115300   0.7266258241E+003   0.1944008657E+003   0.1017855564E+003   0.1853557380E+003
    115400   0.7270100824E+003   0.1941409373E+003   0.1018065231E+003   0.1852948027E+003
    115500   0.7274965345E+003   0.1939172062E+003   0.1018729948E+003   0.1853299452E+003
    115600   0.7280929381E+003   0.1937230908E+003   0.1019152854E+003   0.1852957275E+003
    115700   0.7286020436E+003   0.1935799297E+003   0.1019726741E+003   0.1852914683E+003
    115800   0.7289719742E+003   0.1934317602E+003   0.1020244102E+003   0.1852863177E+003
    115900   0.7294076077E+003   0.1932110020E+003   0.1020442959E+003   0.1852353318E+003
    116000   0.7298298733E+003   0.1929046019E+003   0.1020869289E+003   0.1851885516E+003
    116100   0.7301649599E+003   0.1926691291E+003   0.1021137183E+003   0.1851413516E+003
    116200   0.7306426799E+003   0.1923090125E+003   0.1022123343E+003   0.1852464400E+003
    116300   0.7312778016E+003   0.1919868000E+003   0.1021987620E+003   0.1851953492E+003
    116400   0.7319877765E+003   0.1915515743E+003   0.1021829858E+003   0.1851461426E+003
    116500   0.7325573132E+003   0.1913556458E+003   0.1021776771E+003   0.1850859035E+003
    116600   0.7330356576E+003   0.1911423541E+003   0.1022174587E+003   0.1851017830E+003
    116700   0.7335680243E+003   0.1909261078E+003   0.1022148292E+003   0.1850447057E+003
    116800   0.7344067705E+003   0.1907043576E+003   0.1022140445E+003   0.1850253689E+003
    116900   0.7351575486E+003   0.1905263601E+003   0.1022167392E+003   0.1850120279E+003
    117000   0.7357320248E+003   0.1903744319E+003   0.1022530577E+003   0.1850293374E+003
    117100   0.7361742826E+003   0.1902351835E+003   0.1022866009E+003   0.1850183201E+003
    117200   0.7366776929E+003   0.1901937530E+003   0.1022872978E+003   0.1849204332E+003
    117300   0.7372445196E+003   0.1901049324E+003   0.1022930615E+003   0.1848068180E+003
    117400   0.7376662535E+003   0.1899079579E+003   0.1022998774E+003   0.1847291335E+003
    117500   0.7381156695E+003   0.1896920551E+003   0.1023530495E+003   0.1847378686E+003
    117600   0.7385842598E+003   0.1894885377E+003   0.1024645680E+003   0.1848076599E+003
    117700   0.7389096028E+003   0.1893283635E+003   0.1026442874E+003   0.1849815689E+003
    117800   0.7391551067E+003   0.1891060176E+003   0.1027613557E+003   0.1850657520E+003
    117900   0.7394114142E+003   0.1888795068E+003   0.1028423375E+003   0.1851171431E+003
    118000   0.7398596169E+003   0.1887321018E+003   0.1028416501E+003   0.1850731534E+003
    118100   0.7403080284E+003   0.1885232507E+003   0.1028369511E+003   0.1850433394E+003
    118200   0.7405707757E+003   0.1883095628E+003   0.1028497654E+003   0.1850183706E+003
    118300   0.7407870528E+003   0.1881099319E+003   0.1028595414E+003   0.1849636548E+003
    118400   0.7410153367E+003   0.1879492023E+003   0.1028436674E+003   0.1848708990E+003
    118500   0.7412493168E+003   0.1877980191E+003   0.1028551153E+003   0.1848129953E+003
    118600   0.7414525968E+003   0.1875852095E+003   0.1028992701E+003   0.1848497609E+003
    118700   0.7415743642E+003   0.1874285467E+003   0.1029516872E+003   0.1848899114E+003
    118800   0.7418102817E+003   0.1872750231E+003   0.1029875165E+003   0.1849083070E+003
    118900   0.7421879747E+003   0.1871404303E+003   0.1030805255E+003   0.1850147401E+003
    119000   0.7424409273E+003   0.1870702023E+003   0.1031278727E+003   0.1850467579E+003
    119100   0.7426152350E+003   0.1870035648E+003   0.1031590172E+003   0.1850480010E+003
    119200   0.7427805312E+003   0.1869348869E+003   0.1031905416E+003   0.1850412411E+003
    119300   0.7429912018E+003   0.1868378707E+003   0.1032445279E+003   0.1850457275E+003
    119400   0.7431665253E+003   0.1868289363E+003   0.1032944581E+003   0.1850416826E+003
    119500   0.7432624569E+003   0.1867836218E+003   0.1033502993E+003   0.1850660547E+003
    119600   0.7433755189E+003   0.1867183305E+003   0.1034091615E+003   0.1850776955E+003
    119700   0.7434593796E+003   0.1866500510E+003   0.1034580606E+003   0.1850561861E+003
    119800   0.7434908260E+003   0.1865876320E+003   0.1035010368E+003   0.1850191215E+003
    119900   0.7436143714E+003   0.1864676532E+003   0.1035674339E+003   0.1850574828E+003
    120000   0.7438266216E+003   0.1864039571E+003   0.1036669487E+003   0.1851273538E+003
    120100   0.7440088165E+003   0.1864062760E+003   0.1037334723E+003   0.1851264024E+003
    120200   0.7441349667E+003   0.1863555107E+003   0.1038441003E+003   0.1851950058E+003
    120300   0.7442207612E+003   0.1863280592E+003   0.1039415056E+003   0.1852455163E+003
    120400   0.7442889018E+003   0.1863087677E+003   0.1040307638E+003   0.1852602954E+003
    120500   0.7442076492E+003   0.1863316316E+003   0.1041340448E+003   0.1852869583E+003
    120600   0.7440759582E+003   0.1863375620E+003   0.1042133163E+003   0.1852650422E+003
    120700   0.7440004366E+003   0.1863847419E+003   0.1043080404E+003   0.1852916610E+003
    120800   0.7440125082E+003   0.1864792364E+003   0.1043897216E+003   0.1852728774E+003
    120900   0.7440115453E+003   0.1865373213E+003   0.1045240896E+003   0.1853371792E+003
    121000   0.7439809075E+003   0.1865512088E+003   0.1045968513E+003   0.1853528188E+003
    121100   0.7440638440E+003   0.1865775120E+003   0.1046426651E+003   0.1853326844E+003
    121200   0.7442318654E+003   0.1865762010E+003   0.1046288801E+003   0.1852300836E+003
    121300   0.7444777652E+003   0.1865941791E+003   0.1046488969E+003   0.1851918691E+003
    121400   0.7447481294E+003   0.1865378759E+003   0.1046454124E+003   0.1851234441E+003
    121500   0.7450152057E+003   0.1865036269E+003   0.1046744152E+003   0.1851329120E+003
    121600   0.7452034519E+003   0.1864090838E+003   0.1046705677E+003   0.1850976207E+003
    121700   0.7454917335E+003   0.1862807786E+003   0.1046908380E+003   0.1851107498E+003
    121800   0.7457614084E+003   0.1861905833E+003   0.1047092244E+003   0.1851195206E+003
    121900   0.7460869756E+003   0.1861186250E+003   0.1047403187E+003   0.1851422936E+003
