# Cycle, ((Average density(Ib,Tm), Tm=1,N_MolType), Ib=1,N_Box)
    100100   0.9428474748E+003   0.7933475740E+002   0.6584411724E+002   0.9395625722E+002
    100200   0.9511796226E+003   0.8541896671E+002   0.6667543652E+002   0.9496838299E+002
    100300   0.9510339302E+003   0.8727992302E+002   0.6712002080E+002   0.9525794358E+002
    100400   0.9486979326E+003   0.8817702521E+002   0.6643083348E+002   0.9388836038E+002
    100500   0.9455350021E+003   0.8848612843E+002   0.6626709502E+002   0.9308448317E+002
    100600   0.9444730737E+003   0.8901704512E+002   0.6631639972E+002   0.9305799292E+002
    100700   0.9440004122E+003   0.8906861338E+002   0.6622883225E+002   0.9310471230E+002
    100800   0.9423836179E+003   0.8923973484E+002   0.6627079771E+002   0.9334134650E+002
    100900   0.9400263785E+003   0.8907644218E+002   0.6642831142E+002   0.9350506411E+002
    101000   0.9377646957E+003   0.8910807951E+002   0.6638542340E+002   0.9339656532E+002
    101100   0.9350727770E+003   0.8939336482E+002   0.6640429270E+002   0.9344500929E+002
    101200   0.9336639612E+003   0.8944891932E+002   0.6622626477E+002   0.9328067217E+002
    101300   0.9325927084E+003   0.8993274924E+002   0.6615622294E+002   0.9323089559E+002
    101400   0.9306025809E+003   0.9022774828E+002   0.6629196684E+002   0.9347723051E+002
    101500   0.9283418247E+003   0.9050466495E+002   0.6639469634E+002   0.9358419106E+002
    101600   0.9270201370E+003   0.9096388607E+002   0.6667371610E+002   0.9380685981E+002
    101700   0.9248588569E+003   0.9156679342E+002   0.6661954074E+002   0.9353311400E+002
    101800   0.9237502283E+003   0.9241099542E+002   0.6648784762E+002   0.9319401577E+002
    101900   0.9220753803E+003   0.9250243106E+002   0.6668836303E+002   0.9349602980E+002
    102000   0.9192625395E+003   0.9271848199E+002   0.6653888920E+002   0.9329716263E+002
    102100   0.9168937602E+003   0.9293811020E+002   0.6663047742E+002   0.9332372724E+002
    102200   0.9149582032E+003   0.9326873697E+002   0.6663241667E+002   0.9316593432E+002
    102300   0.9127961651E+003   0.9354596275E+002   0.6684258138E+002   0.9326527825E+002
    102400   0.9113064337E+003   0.9373084623E+002   0.6681419809E+002   0.9313320256E+002
    102500   0.9102780220E+003   0.9407559643E+002   0.6681581826E+002   0.9305899545E+002
    102600   0.9087592078E+003   0.9446945112E+002   0.6693517612E+002   0.9309137781E+002
    102700   0.9073804674E+003   0.9477701795E+002   0.6709876312E+002   0.9311740756E+002
    102800   0.9058842722E+003   0.9487476184E+002   0.6722338751E+002   0.9312617254E+002
    102900   0.9049179243E+003   0.9478176406E+002   0.6731234236E+002   0.9318507076E+002
    103000   0.9039526892E+003   0.9467439757E+002   0.6731977541E+002   0.9321496202E+002
    103100   0.9027452011E+003   0.9458462650E+002   0.6742487840E+002   0.9337025130E+002
    103200   0.9014768597E+003   0.9455264218E+002   0.6743321938E+002   0.9339814088E+002
    103300   0.9007349886E+003   0.9451126168E+002   0.6736210369E+002   0.9340131808E+002
    103400   0.9002409492E+003   0.9443007446E+002   0.6721754706E+002   0.9330789511E+002
    103500   0.9000026177E+003   0.9446230244E+002   0.6709043876E+002   0.9316884093E+002
    103600   0.8999593391E+003   0.9440559758E+002   0.6708537989E+002   0.9326523747E+002
    103700   0.8997140400E+003   0.9421483379E+002   0.6699503857E+002   0.9331913693E+002
    103800   0.8992673921E+003   0.9409962840E+002   0.6706898569E+002   0.9353654606E+002
    103900   0.8989466974E+003   0.9418214282E+002   0.6711816467E+002   0.9368634999E+002
    104000   0.8985526416E+003   0.9433672980E+002   0.6720816369E+002   0.9387241701E+002
    104100   0.8978988782E+003   0.9458806138E+002   0.6728207372E+002   0.9400438997E+002
    104200   0.8977216980E+003   0.9470639982E+002   0.6726899630E+002   0.9405764256E+002
    104300   0.8981268786E+003   0.9482911333E+002   0.6717354852E+002   0.9413741588E+002
    104400   0.8982979811E+003   0.9485657037E+002   0.6703203950E+002   0.9414300515E+002
    104500   0.8986081048E+003   0.9472198822E+002   0.6688232530E+002   0.9416851615E+002
    104600   0.8991276868E+003   0.9466862675E+002   0.6674101765E+002   0.9421836724E+002
    104700   0.8992349355E+003   0.9464732482E+002   0.6666010525E+002   0.9422685997E+002
    104800   0.8987461354E+003   0.9462114048E+002   0.6660769522E+002   0.9421226124E+002
    104900   0.8981751497E+003   0.9464241183E+002   0.6652708628E+002   0.9411788904E+002
    105000   0.8979868792E+003   0.9477381627E+002   0.6642613299E+002   0.9396948805E+002
    105100   0.8976453241E+003   0.9498246578E+002   0.6652559973E+002   0.9405325481E+002
    105200   0.8972732933E+003   0.9518981175E+002   0.6657234587E+002   0.9408394217E+002
    105300   0.8968152887E+003   0.9532718261E+002   0.6656035010E+002   0.9409262075E+002
    105400   0.8965229152E+003   0.9541817094E+002   0.6650745052E+002   0.9407887358E+002
    105500   0.8962241149E+003   0.9553876246E+002   0.6642029529E+002   0.9402537778E+002
    105600   0.8958966342E+003   0.9552924002E+002   0.6639889156E+002   0.9406037587E+002
    105700   0.8951489976E+003   0.9551196578E+002   0.6637136472E+002   0.9410109627E+002
    105800   0.8946785156E+003   0.9549929489E+002   0.6635646362E+002   0.9415598143E+002
    105900   0.8939756999E+003   0.9538821579E+002   0.6634041846E+002   0.9423471334E+002
    106000   0.8935115202E+003   0.9525557673E+002   0.6629437203E+002   0.9429443251E+002
    106100   0.8930908810E+003   0.9526389933E+002   0.6624843069E+002   0.9429044915E+002
    106200   0.8924930632E+003   0.9525868137E+002   0.6619680155E+002   0.9426727146E+002
    106300   0.8916539294E+003   0.9527824417E+002   0.6621458590E+002   0.9432707579E+002
    106400   0.8910078882E+003   0.9537444142E+002   0.6620226610E+002   0.9431842834E+002
    106500   0.8904486348E+003   0.9548153827E+002   0.6616082886E+002   0.9429219927E+002
    106600   0.8899467541E+003   0.9560119091E+002   0.6612859959E+002   0.9424822823E+002
    106700   0.8892271230E+003   0.9568007262E+002   0.6611671369E+002   0.9422598169E+002
    106800   0.8885851628E+003   0.9570291873E+002   0.6609837348E+002   0.9417207427E+002
    106900   0.8880305404E+003   0.9576425162E+002   0.6608989829E+002   0.9412567454E+002
    107000   0.8877734090E+003   0.9587624204E+002   0.6612761608E+002   0.9412554451E+002
    107100   0.8874503674E+003   0.9605594704E+002   0.6618495341E+002   0.9412943864E+002
    107200   0.8871572315E+003   0.9623651209E+002   0.6623269777E+002   0.9410444476E+002
    107300   0.8869223982E+003   0.9633703968E+002   0.6622793893E+002   0.9402986238E+002
    107400   0.8868062123E+003   0.9641948276E+002   0.6619704405E+002   0.9396007865E+002
    107500   0.8867526118E+003   0.9642854523E+002   0.6615398765E+002   0.9391244620E+002
    107600   0.8865279965E+003   0.9641779711E+002   0.6613008634E+002   0.9388525444E+002
    107700   0.8863653692E+003   0.9641600446E+002   0.6613431006E+002   0.9390760871E+002
    107800   0.8863076520E+003   0.9646894537E+002   0.6613826864E+002   0.9392233915E+002
    107900   0.8861625552E+003   0.9649823765E+002   0.6610337072E+002   0.9387327708E+002
    108000   0.8858918358E+003   0.9653808287E+002   0.6606786845E+002   0.9381853238E+002
    108100   0.8856258982E+003   0.9658270100E+002   0.6605543290E+002   0.9377710615E+002
    108200   0.8853544613E+003   0.9664413976E+002   0.6614415159E+002   0.9384837934E+002
    108300   0.8848295072E+003   0.9680324268E+002   0.6619413989E+002   0.9380488094E+002
    108400   0.8846838218E+003   0.9695374852E+002   0.6624829944E+002   0.9381221217E+002
    108500   0.8847196102E+003   0.9709368905E+002   0.6628141016E+002   0.9382885165E+002
    108600   0.8846864262E+003   0.9717456167E+002   0.6626673841E+002   0.9378218920E+002
    108700   0.8845848001E+003   0.9733988593E+002   0.6630832040E+002   0.9376549585E+002
    108800   0.8847085435E+003   0.9749277360E+002   0.6634447652E+002   0.9376049430E+002
    108900   0.8849122410E+003   0.9774303870E+002   0.6642149338E+002   0.9379100981E+002
    109000   0.8848519362E+003   0.9792738963E+002   0.6653436344E+002   0.9385759210E+002
    109100   0.8847956384E+003   0.9799996752E+002   0.6658206964E+002   0.9388623584E+002
    109200   0.8846367246E+003   0.9815741239E+002   0.6667175471E+002   0.9393736031E+002
    109300   0.8845169189E+003   0.9832471750E+002   0.6679451672E+002   0.9402344987E+002
    109400   0.8843207067E+003   0.9846759630E+002   0.6679451788E+002   0.9396392775E+002
    109500   0.8841800869E+003   0.9852947613E+002   0.6680784154E+002   0.9395750182E+002
    109600   0.8840551832E+003   0.9861887970E+002   0.6678455229E+002   0.9388170494E+002
    109700   0.8839257645E+003   0.9871326457E+002   0.6679996008E+002   0.9387616904E+002
    109800   0.8838420108E+003   0.9882910570E+002   0.6680687728E+002   0.9386509061E+002
    109900   0.8838858508E+003   0.9887253171E+002   0.6676026260E+002   0.9380510533E+002
    110000   0.8838483532E+003   0.9896586494E+002   0.6673597770E+002   0.9373232819E+002
    110100   0.8838400326E+003   0.9905862401E+002   0.6673851929E+002   0.9367989791E+002
    110200   0.8838827218E+003   0.9916775711E+002   0.6676325739E+002   0.9365301757E+002
    110300   0.8839531032E+003   0.9925010198E+002   0.6679107927E+002   0.9366374325E+002
    110400   0.8839738435E+003   0.9936257400E+002   0.6677836132E+002   0.9363194264E+002
    110500   0.8840045290E+003   0.9953287051E+002   0.6680341469E+002   0.9366143111E+002
    110600   0.8841171139E+003   0.9975582952E+002   0.6680434659E+002   0.9365276643E+002
    110700   0.8841809654E+003   0.9988306712E+002   0.6676526405E+002   0.9361650753E+002
    110800   0.8842893459E+003   0.9989974448E+002   0.6673322160E+002   0.9361968868E+002
    110900   0.8845188508E+003   0.9990810042E+002   0.6672724382E+002   0.9367349196E+002
    111000   0.8847519722E+003   0.9991881336E+002   0.6669128240E+002   0.9368840262E+002
    111100   0.8849743708E+003   0.9989946996E+002   0.6664064840E+002   0.9367412480E+002
    111200   0.8852041461E+003   0.9982998826E+002   0.6660598392E+002   0.9369704918E+002
    111300   0.8853380502E+003   0.9981465633E+002   0.6657713219E+002   0.9371130845E+002
    111400   0.8855127041E+003   0.9980504021E+002   0.6656809029E+002   0.9372285984E+002
    111500   0.8857875173E+003   0.9976715241E+002   0.6658489077E+002   0.9376215082E+002
    111600   0.8860999884E+003   0.9961799015E+002   0.6659827102E+002   0.9383373622E+002
    111700   0.8862675795E+003   0.9950290618E+002   0.6659486946E+002   0.9386414504E+002
    111800   0.8863874336E+003   0.9940898506E+002   0.6657090109E+002   0.9386609611E+002
    111900   0.8865406226E+003   0.9931432255E+002   0.6656119125E+002   0.9389867093E+002
    112000   0.8869420557E+003   0.9924046922E+002   0.6656671237E+002   0.9396178659E+002
    112100   0.8873910393E+003   0.9919325466E+002   0.6655093357E+002   0.9398709960E+002
    112200   0.8876505844E+003   0.9912889307E+002   0.6653976115E+002   0.9402125610E+002
    112300   0.8878129173E+003   0.9911239986E+002   0.6651284608E+002   0.9401506646E+002
    112400   0.8880798016E+003   0.9908410725E+002   0.6649756970E+002   0.9402539550E+002
    112500   0.8884226256E+003   0.9905821769E+002   0.6645101189E+002   0.9399894224E+002
    112600   0.8888102665E+003   0.9895971736E+002   0.6642817489E+002   0.9404920807E+002
    112700   0.8891914837E+003   0.9890686151E+002   0.6641463633E+002   0.9409416930E+002
    112800   0.8895996224E+003   0.9892077370E+002   0.6642778366E+002   0.9414200614E+002
    112900   0.8899287747E+003   0.9889775528E+002   0.6641706028E+002   0.9415597360E+002
    113000   0.8901497672E+003   0.9885780668E+002   0.6641247149E+002   0.9416636216E+002
    113100   0.8902987412E+003   0.9875438560E+002   0.6637243720E+002   0.9413804179E+002
    113200   0.8903911639E+003   0.9865742551E+002   0.6636425262E+002   0.9415765682E+002
    113300   0.8905068851E+003   0.9856015752E+002   0.6635891071E+002   0.9418819062E+002
    113400   0.8906773099E+003   0.9845472561E+002   0.6635310682E+002   0.9422263681E+002
    113500   0.8908143080E+003   0.9843172737E+002   0.6634436755E+002   0.9423536526E+002
    113600   0.8909580357E+003   0.9842493725E+002   0.6631851928E+002   0.9422012594E+002
    113700   0.8911263803E+003   0.9845296819E+002   0.6632620982E+002   0.9425012746E+002
    113800   0.8912465502E+003   0.9842569462E+002   0.6633720461E+002   0.9429840411E+002
    113900   0.8912593657E+003   0.9836694604E+002   0.6631169234E+002   0.9428852357E+002
    114000   0.8912848361E+003   0.9832123401E+002   0.6629362347E+002   0.9428744280E+002
    114100   0.8913345281E+003   0.9823869420E+002   0.6628417921E+002   0.9430990798E+002
    114200   0.8913850838E+003   0.9818854276E+002   0.6627426769E+002   0.9432093969E+002
    114300   0.8913955627E+003   0.9815444210E+002   0.6625404854E+002   0.9430780362E+002
    114400   0.8914654271E+003   0.9810661462E+002   0.6622309281E+002   0.9427964420E+002
    114500   0.8917348437E+003   0.9798514429E+002   0.6618463772E+002   0.9426753049E+002
    114600   0.8918601993E+003   0.9785441319E+002   0.6618223038E+002   0.9428556650E+002
    114700   0.8920430401E+003   0.9773577983E+002   0.6619664835E+002   0.9430990149E+002
    114800   0.8923636810E+003   0.9759443476E+002   0.6622429054E+002   0.9437008099E+002
    114900   0.8927887528E+003   0.9742286521E+002   0.6620374313E+002   0.9435522254E+002
    115000   0.8931329494E+003   0.9727492007E+002   0.6620108230E+002   0.9436857444E+002
    115100   0.8934579885E+003   0.9712406138E+002   0.6622022321E+002   0.9440209680E+002
    115200   0.8937650117E+003   0.9699289460E+002   0.6622823041E+002   0.9441842034E+002
    115300   0.8940995628E+003   0.9683722572E+002   0.6619790485E+002   0.9439204202E+002
    115400   0.8942799839E+003   0.9666789953E+002   0.6617855378E+002   0.9437342685E+002
    115500   0.8944739229E+003   0.9652071354E+002   0.6618021313E+002   0.9437442454E+002
    115600   0.8946914459E+003   0.9644870710E+002   0.6617947799E+002   0.9435515113E+002
    115700   0.8948443801E+003   0.9637757195E+002   0.6621695376E+002   0.9438645884E+002
    115800   0.8950370632E+003   0.9630052462E+002   0.6622827923E+002   0.9438696958E+002
    115900   0.8952908483E+003   0.9618571332E+002   0.6622223877E+002   0.9437954650E+002
    116000   0.8955508100E+003   0.9604697379E+002   0.6620428469E+002   0.9435976834E+002
    116100   0.8958536142E+003   0.9588539561E+002   0.6620321917E+002   0.9436233469E+002
    116200   0.8960095655E+003   0.9567066743E+002   0.6620171906E+002   0.9436552388E+002
    116300   0.8962459419E+003   0.9548199113E+002   0.6618410823E+002   0.9432869482E+002
    116400   0.8964916983E+003   0.9534791764E+002   0.6617379247E+002   0.9428624016E+002
    116500   0.8967491434E+003   0.9523500955E+002   0.6619247929E+002   0.9429202000E+002
    116600   0.8969830821E+003   0.9511648568E+002   0.6619921008E+002   0.9428350880E+002
    116700   0.8972684848E+003   0.9494677800E+002   0.6619846304E+002   0.9426610873E+002
    116800   0.8976110026E+003   0.9479403738E+002   0.6619012362E+002   0.9424236113E+002
    116900   0.8981349327E+003   0.9461827404E+002   0.6619745334E+002   0.9424633448E+002
    117000   0.8986149856E+003   0.9451445574E+002   0.6617972417E+002   0.9420131268E+002
    117100   0.8989650553E+003   0.9444386140E+002   0.6620620244E+002   0.9419764190E+002
    117200   0.8991936793E+003   0.9438858679E+002   0.6624495925E+002   0.9419694152E+002
    117300   0.8993741143E+003   0.9430623500E+002   0.6627130912E+002   0.9418930007E+002
    117400   0.8997084128E+003   0.9420336782E+002   0.6631272316E+002   0.9419537670E+002
    117500   0.8999556871E+003   0.9411107201E+002   0.6632650204E+002   0.9416739756E+002
    117600   0.9000883558E+003   0.9399996528E+002   0.6636091845E+002   0.9416830509E+002
    117700   0.9001991430E+003   0.9393709510E+002   0.6636792145E+002   0.9413948554E+002
    117800   0.9002438787E+003   0.9386490160E+002   0.6639083187E+002   0.9412155917E+002
    117900   0.9003149182E+003   0.9380892089E+002   0.6639928369E+002   0.9408351770E+002
    118000   0.9003759438E+003   0.9375691300E+002   0.6647972810E+002   0.9413099529E+002
    118100   0.9004012474E+003   0.9371860418E+002   0.6653754418E+002   0.9415041800E+002
    118200   0.9002400706E+003   0.9369765424E+002   0.6659712053E+002   0.9414637621E+002
    118300   0.9000846551E+003   0.9371371070E+002   0.6664962981E+002   0.9413458518E+002
    118400   0.8999989759E+003   0.9377708573E+002   0.6673270384E+002   0.9414221955E+002
    118500   0.8998219829E+003   0.9381159730E+002   0.6677599277E+002   0.9410480077E+002
    118600   0.8997466111E+003   0.9385180324E+002   0.6682602488E+002   0.9409340462E+002
    118700   0.8997560425E+003   0.9392276021E+002   0.6686327903E+002   0.9407685516E+002
    118800   0.8997578610E+003   0.9398286413E+002   0.6690902758E+002   0.9406882485E+002
    118900   0.8997660515E+003   0.9389093727E+002   0.6693503383E+002   0.9407568635E+002
    119000   0.8998252254E+003   0.9383798702E+002   0.6696348172E+002   0.9409576708E+002
    119100   0.8998025458E+003   0.9384496632E+002   0.6700091628E+002   0.9411863743E+002
    119200   0.8997451559E+003   0.9387849015E+002   0.6702880918E+002   0.9412349053E+002
    119300   0.8996734483E+003   0.9391790699E+002   0.6704880146E+002   0.9411819858E+002
    119400   0.8995151720E+003   0.9392007303E+002   0.6703836631E+002   0.9408498930E+002
    119500   0.8993506352E+003   0.9393293079E+002   0.6703232167E+002   0.9405711221E+002
    119600   0.8992853885E+003   0.9396951930E+002   0.6701830583E+002   0.9401715803E+002
    119700   0.8993399755E+003   0.9397499836E+002   0.6701881164E+002   0.9400067155E+002
    119800   0.8993717167E+003   0.9394636235E+002   0.6703751893E+002   0.9401157546E+002
    119900   0.8993550338E+003   0.9389964402E+002   0.6705438066E+002   0.9403198238E+002
    120000   0.8992658147E+003   0.9392454351E+002   0.6706392327E+002   0.9402688552E+002
    120100   0.8992663440E+003   0.9400429096E+002   0.6705479400E+002   0.9398369766E+002
    120200   0.8992204964E+003   0.9403340255E+002   0.6705550974E+002   0.9397044713E+002
    120300   0.8991543162E+003   0.9407619839E+002   0.6706615939E+002   0.9396682312E+002
    120400   0.8991036197E+003   0.9411618301E+002   0.6708125141E+002   0.9397110737E+002
    120500   0.8989505064E+003   0.9412989857E+002   0.6708135637E+002   0.9395385625E+002
    120600   0.8989000484E+003   0.9414033166E+002   0.6708554882E+002   0.9395160496E+002
    120700   0.8988243124E+003   0.9414076520E+002   0.6708985507E+002   0.9395213660E+002
    120800   0.8987529605E+003   0.9414534780E+002   0.6710164927E+002   0.9396595076E+002
    120900   0.8986828791E+003   0.9414703776E+002   0.6710070728E+002   0.9396502197E+002
    121000   0.8985471492E+003   0.9414692139E+002   0.6708631082E+002   0.9394669486E+002
    121100   0.8984367970E+003   0.9414429280E+002   0.6709497246E+002   0.9395883839E+002
    121200   0.8983245197E+003   0.9411610623E+002   0.6710100291E+002   0.9396876523E+002
    121300   0.8983033717E+003   0.9409501282E+002   0.6711070777E+002   0.9398095978E+002
    121400   0.8983426382E+003   0.9406085649E+002   0.6709841232E+002   0.9396625911E+002
    121500   0.8983779156E+003   0.9402066211E+002   0.6708220892E+002   0.9395828964E+002
    121600   0.8984638489E+003   0.9396397606E+002   0.6705461531E+002   0.9393753194E+002
    121700   0.8985438229E+003   0.9395420447E+002   0.6704305068E+002   0.9392781593E+002
    121800   0.8985910117E+003   0.9394645682E+002   0.6702320876E+002   0.9390338285E+002
    121900   0.8986150174E+003   0.9392287070E+002   0.6704373394E+002   0.9393923939E+002
