# Cycle, ((Average density(Ib,Tm), Tm=1,N_MolType), Ib=1,N_Box)
    100100   0.6132157541E+003   0.2391917006E+003   0.8958274945E+002   0.2036889908E+003
    100200   0.6088294845E+003   0.2355055882E+003   0.9129759440E+002   0.2053593098E+003
    100300   0.6065610433E+003   0.2341596176E+003   0.9220982655E+002   0.2045207684E+003
    100400   0.6026515831E+003   0.2303696028E+003   0.9298646849E+002   0.2043013249E+003
    100500   0.5978858999E+003   0.2281150818E+003   0.9389614306E+002   0.2039449054E+003
    100600   0.5946537744E+003   0.2281621998E+003   0.9527475215E+002   0.2040584376E+003
    100700   0.5920861740E+003   0.2277645174E+003   0.9729997732E+002   0.2059980203E+003
    100800   0.5895656988E+003   0.2278360043E+003   0.9849801875E+002   0.2064430146E+003
    100900   0.5875197524E+003   0.2281674191E+003   0.9952529234E+002   0.2070570054E+003
    101000   0.5862852508E+003   0.2280356096E+003   0.1002493899E+003   0.2077741725E+003
    101100   0.5860195471E+003   0.2283008625E+003   0.1003354569E+003   0.2073003652E+003
    101200   0.5861293189E+003   0.2290135997E+003   0.1004167049E+003   0.2066236730E+003
    101300   0.5852506653E+003   0.2299380828E+003   0.1008311369E+003   0.2063561596E+003
    101400   0.5840428210E+003   0.2304709814E+003   0.1014518410E+003   0.2067614416E+003
    101500   0.5830600448E+003   0.2312750156E+003   0.1022231700E+003   0.2071827564E+003
    101600   0.5834378767E+003   0.2319214229E+003   0.1028668644E+003   0.2082023818E+003
    101700   0.5841475072E+003   0.2324615061E+003   0.1030618426E+003   0.2090526658E+003
    101800   0.5843633237E+003   0.2329231931E+003   0.1028672660E+003   0.2091027326E+003
    101900   0.5838365008E+003   0.2334143206E+003   0.1026235554E+003   0.2086333460E+003
    102000   0.5833529548E+003   0.2338545977E+003   0.1022588056E+003   0.2078852593E+003
    102100   0.5826440910E+003   0.2342165265E+003   0.1025304001E+003   0.2081455926E+003
    102200   0.5824360120E+003   0.2346544326E+003   0.1025454855E+003   0.2080051580E+003
    102300   0.5825327328E+003   0.2349350085E+003   0.1026765550E+003   0.2084964648E+003
    102400   0.5826587087E+003   0.2349084066E+003   0.1026687654E+003   0.2089178904E+003
    102500   0.5831558960E+003   0.2349451987E+003   0.1025881958E+003   0.2091759331E+003
    102600   0.5827651390E+003   0.2347709805E+003   0.1025129774E+003   0.2093056569E+003
    102700   0.5822525539E+003   0.2347727745E+003   0.1026778984E+003   0.2097474748E+003
    102800   0.5823569482E+003   0.2348530199E+003   0.1024743871E+003   0.2096606317E+003
    102900   0.5825015810E+003   0.2350829617E+003   0.1021023013E+003   0.2093049543E+003
    103000   0.5826724216E+003   0.2353898969E+003   0.1019062212E+003   0.2092314256E+003
    103100   0.5825155887E+003   0.2357892670E+003   0.1019335117E+003   0.2091838483E+003
    103200   0.5819265525E+003   0.2360821448E+003   0.1019201872E+003   0.2089762178E+003
    103300   0.5813141702E+003   0.2364428046E+003   0.1018534907E+003   0.2085871550E+003
    103400   0.5810539754E+003   0.2369428801E+003   0.1018964660E+003   0.2084733491E+003
    103500   0.5810708611E+003   0.2375254766E+003   0.1020130758E+003   0.2084408555E+003
    103600   0.5811760497E+003   0.2380188729E+003   0.1020555040E+003   0.2084240639E+003
    103700   0.5811094925E+003   0.2383786311E+003   0.1021171114E+003   0.2085133138E+003
    103800   0.5811982974E+003   0.2387393399E+003   0.1021100803E+003   0.2086117202E+003
    103900   0.5812621522E+003   0.2388738556E+003   0.1020027104E+003   0.2087328802E+003
    104000   0.5811491036E+003   0.2389854418E+003   0.1019579981E+003   0.2088457627E+003
    104100   0.5809376992E+003   0.2391563980E+003   0.1019887921E+003   0.2089872357E+003
    104200   0.5810269876E+003   0.2393628826E+003   0.1019499538E+003   0.2091316657E+003
    104300   0.5809355954E+003   0.2395341745E+003   0.1019262694E+003   0.2091916689E+003
    104400   0.5806367902E+003   0.2396705613E+003   0.1019048560E+003   0.2091660282E+003
    104500   0.5805323483E+003   0.2398713973E+003   0.1017797554E+003   0.2089516919E+003
    104600   0.5802096498E+003   0.2398759618E+003   0.1017079651E+003   0.2088434306E+003
    104700   0.5798777802E+003   0.2401796010E+003   0.1017081931E+003   0.2086050972E+003
    104800   0.5798952520E+003   0.2405879455E+003   0.1019219468E+003   0.2088229340E+003
    104900   0.5798522277E+003   0.2408929261E+003   0.1021553144E+003   0.2090988025E+003
    105000   0.5800123614E+003   0.2412990364E+003   0.1021147722E+003   0.2088690499E+003
    105100   0.5800309926E+003   0.2414624518E+003   0.1021023684E+003   0.2088104479E+003
    105200   0.5798658482E+003   0.2416415671E+003   0.1020961623E+003   0.2086806883E+003
    105300   0.5795414308E+003   0.2417568287E+003   0.1021231439E+003   0.2085146473E+003
    105400   0.5791508123E+003   0.2419550825E+003   0.1022448423E+003   0.2084594380E+003
    105500   0.5785056690E+003   0.2420095238E+003   0.1023156256E+003   0.2083186698E+003
    105600   0.5779072226E+003   0.2420344302E+003   0.1024534465E+003   0.2083613985E+003
    105700   0.5772733235E+003   0.2421273940E+003   0.1025518692E+003   0.2082696773E+003
    105800   0.5765629699E+003   0.2420807423E+003   0.1026516993E+003   0.2082161850E+003
    105900   0.5761375493E+003   0.2421187704E+003   0.1028893495E+003   0.2083938156E+003
    106000   0.5753168329E+003   0.2420392412E+003   0.1031941469E+003   0.2085836448E+003
    106100   0.5746595837E+003   0.2420106113E+003   0.1033331305E+003   0.2085044035E+003
    106200   0.5741708827E+003   0.2420707891E+003   0.1034260500E+003   0.2083498757E+003
    106300   0.5736380012E+003   0.2420436669E+003   0.1035318913E+003   0.2082878478E+003
    106400   0.5731829050E+003   0.2419022510E+003   0.1036008218E+003   0.2082885594E+003
    106500   0.5729171770E+003   0.2418519995E+003   0.1036474030E+003   0.2082467351E+003
    106600   0.5726808697E+003   0.2419039314E+003   0.1036679187E+003   0.2081519672E+003
    106700   0.5723841651E+003   0.2418891751E+003   0.1036313473E+003   0.2080301087E+003
    106800   0.5721896952E+003   0.2419387378E+003   0.1035127187E+003   0.2077744422E+003
    106900   0.5721124631E+003   0.2419530759E+003   0.1035003741E+003   0.2078334895E+003
    107000   0.5721604001E+003   0.2420422433E+003   0.1035346578E+003   0.2079953110E+003
    107100   0.5721919582E+003   0.2421849889E+003   0.1035370131E+003   0.2080124532E+003
    107200   0.5722272597E+003   0.2423562244E+003   0.1036062645E+003   0.2080699696E+003
    107300   0.5721820797E+003   0.2424660914E+003   0.1036578192E+003   0.2080623926E+003
    107400   0.5718857131E+003   0.2425156237E+003   0.1037995443E+003   0.2081286576E+003
    107500   0.5715043076E+003   0.2424763584E+003   0.1040261346E+003   0.2083342676E+003
    107600   0.5711743415E+003   0.2423744699E+003   0.1042715407E+003   0.2086640464E+003
    107700   0.5709196171E+003   0.2423943458E+003   0.1044497539E+003   0.2088469131E+003
    107800   0.5706890261E+003   0.2424412929E+003   0.1045223759E+003   0.2088195010E+003
    107900   0.5706338404E+003   0.2425869648E+003   0.1046626192E+003   0.2088975606E+003
    108000   0.5704643890E+003   0.2426747713E+003   0.1047629833E+003   0.2089094750E+003
    108100   0.5703182618E+003   0.2428034756E+003   0.1048609460E+003   0.2089130279E+003
    108200   0.5699704350E+003   0.2428091924E+003   0.1050285282E+003   0.2090608856E+003
    108300   0.5698141107E+003   0.2429535221E+003   0.1051485057E+003   0.2091394363E+003
    108400   0.5697484802E+003   0.2430838871E+003   0.1052673550E+003   0.2093313764E+003
    108500   0.5695249590E+003   0.2430991174E+003   0.1053967155E+003   0.2095326056E+003
    108600   0.5692958001E+003   0.2430644460E+003   0.1054030917E+003   0.2095256227E+003
    108700   0.5691534475E+003   0.2430735145E+003   0.1054511914E+003   0.2096308557E+003
    108800   0.5690149391E+003   0.2430730378E+003   0.1054282129E+003   0.2095976431E+003
    108900   0.5687919392E+003   0.2431592528E+003   0.1054059491E+003   0.2094768265E+003
    109000   0.5686092874E+003   0.2432235759E+003   0.1054162098E+003   0.2094306011E+003
    109100   0.5683376677E+003   0.2432144407E+003   0.1054668441E+003   0.2094560230E+003
    109200   0.5680731109E+003   0.2432293364E+003   0.1055093799E+003   0.2094414146E+003
    109300   0.5678263859E+003   0.2433100749E+003   0.1056310013E+003   0.2095660978E+003
    109400   0.5676737200E+003   0.2433995586E+003   0.1057543753E+003   0.2097158348E+003
    109500   0.5674928179E+003   0.2434190562E+003   0.1058401706E+003   0.2098094012E+003
    109600   0.5673869025E+003   0.2434202476E+003   0.1058590644E+003   0.2097944480E+003
    109700   0.5672869756E+003   0.2433942816E+003   0.1058602094E+003   0.2097767907E+003
    109800   0.5672279060E+003   0.2434219431E+003   0.1058410219E+003   0.2097040544E+003
    109900   0.5671884726E+003   0.2434883407E+003   0.1058506536E+003   0.2097155378E+003
    110000   0.5669648220E+003   0.2435261200E+003   0.1058937328E+003   0.2097047166E+003
    110100   0.5667859033E+003   0.2435319097E+003   0.1059211544E+003   0.2096921722E+003
    110200   0.5666902416E+003   0.2435765731E+003   0.1059253038E+003   0.2096616131E+003
    110300   0.5666496844E+003   0.2436378558E+003   0.1058823526E+003   0.2095625117E+003
    110400   0.5665644647E+003   0.2436917470E+003   0.1057999544E+003   0.2093699400E+003
    110500   0.5664594211E+003   0.2437040013E+003   0.1057702757E+003   0.2093190881E+003
    110600   0.5664193619E+003   0.2437279968E+003   0.1057865064E+003   0.2093368489E+003
    110700   0.5664526137E+003   0.2438398085E+003   0.1058214860E+003   0.2093544851E+003
    110800   0.5663264377E+003   0.2439197907E+003   0.1058958478E+003   0.2093713078E+003
    110900   0.5662111170E+003   0.2440127311E+003   0.1059480649E+003   0.2093019916E+003
    111000   0.5660294542E+003   0.2440575053E+003   0.1060409103E+003   0.2092971306E+003
    111100   0.5658453904E+003   0.2440693910E+003   0.1061338114E+003   0.2093836960E+003
    111200   0.5656409251E+003   0.2440864559E+003   0.1062004201E+003   0.2094031869E+003
    111300   0.5654342661E+003   0.2441314083E+003   0.1062354342E+003   0.2093581895E+003
    111400   0.5652903912E+003   0.2441764447E+003   0.1062529786E+003   0.2093286610E+003
    111500   0.5652582111E+003   0.2441988588E+003   0.1062682744E+003   0.2093690135E+003
    111600   0.5653887210E+003   0.2442595277E+003   0.1062631459E+003   0.2094042768E+003
    111700   0.5656531639E+003   0.2443162986E+003   0.1062590611E+003   0.2095104282E+003
    111800   0.5658360218E+003   0.2443365016E+003   0.1063435025E+003   0.2097696171E+003
    111900   0.5659260089E+003   0.2443504312E+003   0.1063597226E+003   0.2098500084E+003
    112000   0.5660404947E+003   0.2443979381E+003   0.1063484695E+003   0.2098529083E+003
    112100   0.5662320202E+003   0.2444105883E+003   0.1062951407E+003   0.2098258841E+003
    112200   0.5663893800E+003   0.2443846489E+003   0.1062701100E+003   0.2098347553E+003
    112300   0.5667133091E+003   0.2443679618E+003   0.1062232268E+003   0.2098071008E+003
    112400   0.5668811677E+003   0.2442810066E+003   0.1061952609E+003   0.2097679572E+003
    112500   0.5671248105E+003   0.2442657773E+003   0.1061524878E+003   0.2096984052E+003
    112600   0.5672386488E+003   0.2441988544E+003   0.1061202825E+003   0.2096496624E+003
    112700   0.5673262445E+003   0.2441804669E+003   0.1061530861E+003   0.2096555665E+003
    112800   0.5674336945E+003   0.2442432593E+003   0.1062557385E+003   0.2097460380E+003
    112900   0.5675260756E+003   0.2443247504E+003   0.1062781182E+003   0.2097030999E+003
    113000   0.5675829862E+003   0.2444037310E+003   0.1063104851E+003   0.2096771746E+003
    113100   0.5675686947E+003   0.2444564491E+003   0.1063340321E+003   0.2096201440E+003
    113200   0.5675013962E+003   0.2444471304E+003   0.1063295888E+003   0.2095530192E+003
    113300   0.5674614046E+003   0.2444379166E+003   0.1063248476E+003   0.2094906551E+003
    113400   0.5674718987E+003   0.2444045106E+003   0.1063506256E+003   0.2095099214E+003
    113500   0.5675161444E+003   0.2443907780E+003   0.1063848568E+003   0.2095619697E+003
    113600   0.5676509982E+003   0.2444590138E+003   0.1064722192E+003   0.2096805512E+003
    113700   0.5677518697E+003   0.2444978683E+003   0.1065617501E+003   0.2098213300E+003
    113800   0.5677709641E+003   0.2444785620E+003   0.1066256374E+003   0.2099152057E+003
    113900   0.5678684906E+003   0.2445087920E+003   0.1066470072E+003   0.2099054510E+003
    114000   0.5679754293E+003   0.2445149718E+003   0.1066423867E+003   0.2098463680E+003
    114100   0.5680388924E+003   0.2444819481E+003   0.1066087283E+003   0.2097634211E+003
    114200   0.5680650654E+003   0.2444409457E+003   0.1065763034E+003   0.2096791530E+003
    114300   0.5681292657E+003   0.2443892080E+003   0.1065917935E+003   0.2096744270E+003
    114400   0.5683806524E+003   0.2443709237E+003   0.1066050582E+003   0.2096641778E+003
    114500   0.5686713999E+003   0.2443948236E+003   0.1066348676E+003   0.2096871412E+003
    114600   0.5688202572E+003   0.2443758843E+003   0.1066826059E+003   0.2097237255E+003
    114700   0.5689297887E+003   0.2443633007E+003   0.1067750401E+003   0.2098421112E+003
    114800   0.5690202293E+003   0.2442921466E+003   0.1068375843E+003   0.2099477986E+003
    114900   0.5691597094E+003   0.2442235202E+003   0.1068699986E+003   0.2100351019E+003
    115000   0.5693805352E+003   0.2441812774E+003   0.1068853163E+003   0.2101195725E+003
    115100   0.5695300588E+003   0.2441553856E+003   0.1069034259E+003   0.2102099881E+003
    115200   0.5697176092E+003   0.2440887932E+003   0.1069130017E+003   0.2103197403E+003
    115300   0.5698195035E+003   0.2440116270E+003   0.1068587784E+003   0.2103080123E+003
    115400   0.5699631441E+003   0.2439492330E+003   0.1067539886E+003   0.2101968282E+003
    115500   0.5701498269E+003   0.2439330835E+003   0.1066656286E+003   0.2101108490E+003
    115600   0.5703348033E+003   0.2438883661E+003   0.1065843994E+003   0.2100946488E+003
    115700   0.5705152504E+003   0.2438571670E+003   0.1065775899E+003   0.2101999904E+003
    115800   0.5706886861E+003   0.2438590848E+003   0.1065678310E+003   0.2102836563E+003
    115900   0.5708134650E+003   0.2438983693E+003   0.1065515296E+003   0.2103056682E+003
    116000   0.5708318375E+003   0.2439229537E+003   0.1065627324E+003   0.2103602187E+003
    116100   0.5707596590E+003   0.2438917385E+003   0.1065536521E+003   0.2103781162E+003
    116200   0.5707201910E+003   0.2439117795E+003   0.1065551610E+003   0.2103654513E+003
    116300   0.5706346602E+003   0.2439698531E+003   0.1065820679E+003   0.2103433455E+003
    116400   0.5705883240E+003   0.2440366223E+003   0.1066118274E+003   0.2103357299E+003
    116500   0.5705920327E+003   0.2441393221E+003   0.1066641609E+003   0.2103569354E+003
    116600   0.5705712322E+003   0.2441929817E+003   0.1066786855E+003   0.2103075062E+003
    116700   0.5705736118E+003   0.2442274568E+003   0.1066670355E+003   0.2102350200E+003
    116800   0.5706099786E+003   0.2442554861E+003   0.1066335323E+003   0.2101556710E+003
    116900   0.5706417281E+003   0.2442604372E+003   0.1065931015E+003   0.2100743286E+003
    117000   0.5706497714E+003   0.2442724389E+003   0.1065678587E+003   0.2099960893E+003
    117100   0.5706549776E+003   0.2442821736E+003   0.1065705951E+003   0.2099485955E+003
    117200   0.5707253626E+003   0.2442582040E+003   0.1065475914E+003   0.2099004280E+003
    117300   0.5708146997E+003   0.2442287650E+003   0.1065155702E+003   0.2098376523E+003
    117400   0.5708864655E+003   0.2442140022E+003   0.1065301036E+003   0.2098402004E+003
    117500   0.5710178042E+003   0.2442480065E+003   0.1065660982E+003   0.2098352377E+003
    117600   0.5710397403E+003   0.2443074582E+003   0.1066480465E+003   0.2098580230E+003
    117700   0.5709709968E+003   0.2443572221E+003   0.1067391158E+003   0.2098883712E+003
    117800   0.5709363769E+003   0.2444883652E+003   0.1068150914E+003   0.2098378187E+003
    117900   0.5709007450E+003   0.2445633548E+003   0.1068927425E+003   0.2098216122E+003
    118000   0.5708438719E+003   0.2446361881E+003   0.1069770121E+003   0.2097996447E+003
    118100   0.5707664264E+003   0.2446928725E+003   0.1070759075E+003   0.2098227799E+003
    118200   0.5706724334E+003   0.2447376301E+003   0.1071409215E+003   0.2097909457E+003
    118300   0.5705705143E+003   0.2447754646E+003   0.1072133115E+003   0.2097779130E+003
    118400   0.5705267351E+003   0.2448076023E+003   0.1072585622E+003   0.2097580289E+003
    118500   0.5705031545E+003   0.2448411478E+003   0.1073423634E+003   0.2097966073E+003
    118600   0.5704731008E+003   0.2448494843E+003   0.1074035985E+003   0.2098181065E+003
    118700   0.5704216651E+003   0.2448450462E+003   0.1074838741E+003   0.2098303723E+003
    118800   0.5704651216E+003   0.2448779320E+003   0.1075405876E+003   0.2098070611E+003
    118900   0.5705417244E+003   0.2448755557E+003   0.1075413284E+003   0.2097318008E+003
    119000   0.5705629408E+003   0.2447920690E+003   0.1075289969E+003   0.2096651162E+003
    119100   0.5705705163E+003   0.2447126481E+003   0.1075400025E+003   0.2096244506E+003
    119200   0.5706688222E+003   0.2446890712E+003   0.1075603568E+003   0.2096145201E+003
    119300   0.5708103355E+003   0.2446516275E+003   0.1075869867E+003   0.2096559153E+003
    119400   0.5710298490E+003   0.2446028859E+003   0.1076295171E+003   0.2097695820E+003
    119500   0.5712457163E+003   0.2445707090E+003   0.1076359667E+003   0.2098506638E+003
    119600   0.5714629996E+003   0.2445566104E+003   0.1075769554E+003   0.2098197577E+003
    119700   0.5716010963E+003   0.2444935100E+003   0.1075322156E+003   0.2098141736E+003
    119800   0.5717787019E+003   0.2444521083E+003   0.1075060849E+003   0.2098251795E+003
    119900   0.5719538763E+003   0.2444387308E+003   0.1074784226E+003   0.2098172247E+003
    120000   0.5721529886E+003   0.2444177438E+003   0.1074208252E+003   0.2097665947E+003
    120100   0.5723600886E+003   0.2443690937E+003   0.1073565220E+003   0.2097407745E+003
    120200   0.5725321499E+003   0.2443068380E+003   0.1073106754E+003   0.2097602515E+003
    120300   0.5727200349E+003   0.2442583069E+003   0.1072528727E+003   0.2097361609E+003
    120400   0.5728660238E+003   0.2442296172E+003   0.1071991844E+003   0.2096887239E+003
    120500   0.5729681018E+003   0.2441827427E+003   0.1071539204E+003   0.2096531303E+003
    120600   0.5731436464E+003   0.2441646288E+003   0.1070997223E+003   0.2096264422E+003
    120700   0.5733612046E+003   0.2441602720E+003   0.1070706378E+003   0.2096677852E+003
    120800   0.5735593806E+003   0.2441096968E+003   0.1070023895E+003   0.2096646736E+003
    120900   0.5737558042E+003   0.2440605776E+003   0.1069116376E+003   0.2096392884E+003
    121000   0.5739925938E+003   0.2440058924E+003   0.1068055397E+003   0.2095968131E+003
    121100   0.5742393654E+003   0.2439624221E+003   0.1067304967E+003   0.2096174737E+003
    121200   0.5744772963E+003   0.2438848679E+003   0.1066564681E+003   0.2096557166E+003
    121300   0.5747724917E+003   0.2438453016E+003   0.1065329659E+003   0.2095566951E+003
    121400   0.5750462510E+003   0.2438104569E+003   0.1064433677E+003   0.2095128861E+003
    121500   0.5753048424E+003   0.2437562574E+003   0.1063677974E+003   0.2094969372E+003
    121600   0.5754840830E+003   0.2436989901E+003   0.1062879192E+003   0.2094468873E+003
    121700   0.5756768466E+003   0.2436377151E+003   0.1062036910E+003   0.2094033226E+003
    121800   0.5758544646E+003   0.2435913286E+003   0.1061674771E+003   0.2094311403E+003
    121900   0.5759436255E+003   0.2435416458E+003   0.1061347963E+003   0.2094341839E+003
